H+ + Mg(3s2) --> H + Mg+
X = Energy (eV),Y = Cross section (cm2)
9.000000e+04,5.800000e-18
1.100000e+05,4.100000e-18
1.300000e+05,2.500000e-18
1.500000e+05,1.610000e-18
1.700000e+05,1.100000e-18
1.900000e+05,9.000000e-19
2.100000e+05,7.100000e-19
2.400000e+05,5.100000e-19
2.500000e+05,2.800000e-19
3.300000e+05,2.100000e-19
3.700000e+05,1.050000e-19
4.300000e+05,9.000000e-20
5.000000e+05,4.900000e-20
