O5+ + H --> O4+(1s22s4f) + H+
X = Energy (eV),Y = Cross section (cm2)
8.000000e+03,1.090000e-16
1.600000e+04,2.230000e-16
3.200000e+04,3.750000e-16
6.400000e+04,7.240100e-16
9.600000e+04,9.760100e-16
1.280000e+05,1.190000e-15
1.760000e+05,1.390000e-15
2.240000e+05,1.430000e-15
4.000000e+05,1.120000e-15
5.600000e+05,7.020000e-16
8.000000e+05,3.500000e-16
1.120000e+06,1.540000e-16
1.600000e+06,5.340000e-17
