He2+ + Fe(4s2) --> He+ + Fe+
X = Energy (eV),Y = Cross section (cm2)
1.500000e+05,9.360000e-16
1.700000e+05,5.190000e-16
1.860000e+05,3.110000e-16
2.160000e+05,2.030000e-16
2.500000e+05,1.140000e-16
3.000000e+05,8.600000e-17
3.260000e+05,7.100000e-17
4.200000e+05,5.900000e-17
5.000000e+05,4.800000e-17
6.000000e+05,3.300000e-17
7.200000e+05,2.700000e-17
8.520000e+05,2.300000e-17
1.000000e+06,1.800000e-17
1.200000e+06,1.400000e-17
1.440000e+06,9.000000e-18
