C3H2 + H+ --> (total)
X = Electron energy (eV),Y = Cross section (cm2),Y Error Plus (cm2),Y Error Minus (cm2)
1.000000e-01,4.184000e-15,0.000000e+00,0.000000e+00
1.155000e-01,3.958000e-15,0.000000e+00,0.000000e+00
1.334000e-01,3.722000e-15,0.000000e+00,0.000000e+00
1.540000e-01,3.481000e-15,0.000000e+00,0.000000e+00
1.778000e-01,3.239000e-15,0.000000e+00,0.000000e+00
2.054000e-01,3.000000e-15,0.000000e+00,0.000000e+00
2.371000e-01,2.767000e-15,0.000000e+00,0.000000e+00
2.738000e-01,2.542000e-15,0.000000e+00,0.000000e+00
3.162000e-01,2.329000e-15,0.000000e+00,0.000000e+00
3.652000e-01,2.128000e-15,0.000000e+00,0.000000e+00
4.217000e-01,1.941000e-15,0.000000e+00,0.000000e+00
4.870000e-01,1.767000e-15,0.000000e+00,0.000000e+00
5.623000e-01,1.607000e-15,0.000000e+00,0.000000e+00
6.494000e-01,1.461000e-15,0.000000e+00,0.000000e+00
7.499000e-01,1.329000e-15,0.000000e+00,0.000000e+00
8.660000e-01,1.209000e-15,0.000000e+00,0.000000e+00
1.000000e+00,1.101000e-15,0.000000e+00,0.000000e+00
1.155000e+00,1.005000e-15,0.000000e+00,0.000000e+00
1.334000e+00,9.182000e-16,0.000000e+00,0.000000e+00
1.540000e+00,8.411000e-16,0.000000e+00,0.000000e+00
1.778000e+00,7.725000e-16,0.000000e+00,0.000000e+00
2.054000e+00,7.117000e-16,0.000000e+00,0.000000e+00
2.371000e+00,6.578000e-16,0.000000e+00,0.000000e+00
2.738000e+00,6.103000e-16,0.000000e+00,0.000000e+00
3.162000e+00,5.684000e-16,0.000000e+00,0.000000e+00
3.652000e+00,5.315000e-16,0.000000e+00,0.000000e+00
4.217000e+00,4.992000e-16,0.000000e+00,0.000000e+00
4.870000e+00,4.710000e-16,0.000000e+00,0.000000e+00
5.623000e+00,4.465000e-16,0.000000e+00,0.000000e+00
6.494000e+00,4.252000e-16,0.000000e+00,0.000000e+00
7.499000e+00,4.069000e-16,0.000000e+00,0.000000e+00
8.660000e+00,3.913000e-16,0.000000e+00,0.000000e+00
1.000000e+01,3.782000e-16,0.000000e+00,0.000000e+00
1.155000e+01,3.674000e-16,0.000000e+00,0.000000e+00
1.334000e+01,3.586000e-16,0.000000e+00,0.000000e+00
1.540000e+01,3.518000e-16,0.000000e+00,0.000000e+00
1.778000e+01,3.467000e-16,0.000000e+00,0.000000e+00
2.054000e+01,3.435000e-16,0.000000e+00,0.000000e+00
2.371000e+01,3.418000e-16,0.000000e+00,0.000000e+00
2.738000e+01,3.417000e-16,0.000000e+00,0.000000e+00
3.162000e+01,3.432000e-16,0.000000e+00,0.000000e+00
3.652000e+01,3.462000e-16,0.000000e+00,0.000000e+00
4.217000e+01,3.507000e-16,0.000000e+00,0.000000e+00
4.870000e+01,3.567000e-16,0.000000e+00,0.000000e+00
5.623000e+01,3.642000e-16,0.000000e+00,0.000000e+00
6.494000e+01,3.732000e-16,0.000000e+00,0.000000e+00
7.499000e+01,3.838000e-16,0.000000e+00,0.000000e+00
8.660000e+01,3.960000e-16,0.000000e+00,0.000000e+00
1.000000e+02,4.098000e-16,0.000000e+00,0.000000e+00
1.155000e+02,4.254000e-16,0.000000e+00,0.000000e+00
1.334000e+02,4.427000e-16,0.000000e+00,0.000000e+00
1.540000e+02,4.617000e-16,0.000000e+00,0.000000e+00
1.778000e+02,4.827000e-16,0.000000e+00,0.000000e+00
2.054000e+02,5.055000e-16,0.000000e+00,0.000000e+00
2.371000e+02,5.303000e-16,0.000000e+00,0.000000e+00
2.738000e+02,5.570000e-16,0.000000e+00,0.000000e+00
3.162000e+02,5.857000e-16,0.000000e+00,0.000000e+00
3.652000e+02,6.164000e-16,0.000000e+00,0.000000e+00
4.217000e+02,6.491000e-16,0.000000e+00,0.000000e+00
4.870000e+02,6.836000e-16,0.000000e+00,0.000000e+00
5.623000e+02,7.200000e-16,0.000000e+00,0.000000e+00
6.494000e+02,7.579000e-16,0.000000e+00,0.000000e+00
7.499000e+02,7.973000e-16,0.000000e+00,0.000000e+00
8.660000e+02,8.379000e-16,0.000000e+00,0.000000e+00
1.000000e+03,8.793000e-16,0.000000e+00,0.000000e+00
1.155000e+03,9.211000e-16,0.000000e+00,0.000000e+00
1.334000e+03,9.628000e-16,0.000000e+00,0.000000e+00
1.540000e+03,1.004000e-15,0.000000e+00,0.000000e+00
1.778000e+03,1.044000e-15,0.000000e+00,0.000000e+00
2.054000e+03,1.081000e-15,0.000000e+00,0.000000e+00
2.371000e+03,1.116000e-15,0.000000e+00,0.000000e+00
2.738000e+03,1.146000e-15,0.000000e+00,0.000000e+00
3.162000e+03,1.172000e-15,0.000000e+00,0.000000e+00
3.652000e+03,1.192000e-15,0.000000e+00,0.000000e+00
4.217000e+03,1.205000e-15,0.000000e+00,0.000000e+00
4.870000e+03,1.210000e-15,0.000000e+00,0.000000e+00
5.623000e+03,1.206000e-15,0.000000e+00,0.000000e+00
6.494000e+03,1.193000e-15,0.000000e+00,0.000000e+00
7.499000e+03,1.169000e-15,0.000000e+00,0.000000e+00
8.660000e+03,1.136000e-15,0.000000e+00,0.000000e+00
1.000000e+04,1.091000e-15,0.000000e+00,0.000000e+00
1.155000e+04,1.037000e-15,0.000000e+00,0.000000e+00
1.334000e+04,9.735000e-16,0.000000e+00,0.000000e+00
1.540000e+04,9.019000e-16,0.000000e+00,0.000000e+00
1.778000e+04,8.237000e-16,0.000000e+00,0.000000e+00
2.054000e+04,7.407000e-16,0.000000e+00,0.000000e+00
2.371000e+04,6.551000e-16,0.000000e+00,0.000000e+00
2.738000e+04,5.692000e-16,0.000000e+00,0.000000e+00
3.162000e+04,4.850000e-16,0.000000e+00,0.000000e+00
3.652000e+04,4.049000e-16,0.000000e+00,0.000000e+00
4.217000e+04,3.305000e-16,0.000000e+00,0.000000e+00
4.870000e+04,2.635000e-16,0.000000e+00,0.000000e+00
5.623000e+04,2.048000e-16,0.000000e+00,0.000000e+00
6.494000e+04,1.548000e-16,0.000000e+00,0.000000e+00
7.499000e+04,1.137000e-16,0.000000e+00,0.000000e+00
8.660000e+04,8.096000e-17,0.000000e+00,0.000000e+00
1.000000e+05,5.575000e-17,0.000000e+00,0.000000e+00
1.155000e+05,3.706000e-17,0.000000e+00,0.000000e+00
1.334000e+05,2.373000e-17,0.000000e+00,0.000000e+00
1.540000e+05,1.459000e-17,0.000000e+00,0.000000e+00
1.778000e+05,8.603000e-18,0.000000e+00,0.000000e+00
2.054000e+05,4.847000e-18,0.000000e+00,0.000000e+00
2.371000e+05,2.604000e-18,0.000000e+00,0.000000e+00
2.738000e+05,1.329000e-18,0.000000e+00,0.000000e+00
3.162000e+05,6.434000e-19,0.000000e+00,0.000000e+00
3.652000e+05,2.942000e-19,0.000000e+00,0.000000e+00
4.217000e+05,1.267000e-19,0.000000e+00,0.000000e+00
4.870000e+05,5.125000e-20,0.000000e+00,0.000000e+00
5.623000e+05,1.939000e-20,0.000000e+00,0.000000e+00
6.494000e+05,6.842000e-21,0.000000e+00,0.000000e+00
7.499000e+05,2.242000e-21,0.000000e+00,0.000000e+00
8.660000e+05,6.802000e-22,0.000000e+00,0.000000e+00
1.000000e+06,1.902000e-22,0.000000e+00,0.000000e+00
