C3H4 + H+ --> (total)
X = Electron energy (eV),Y = Cross section (cm2),Y Error Plus (cm2),Y Error Minus (cm2)
1.000000e-01,8.796000e-15,0.000000e+00,0.000000e+00
1.175000e-01,7.594000e-15,0.000000e+00,0.000000e+00
1.380000e-01,6.887000e-15,0.000000e+00,0.000000e+00
1.622000e-01,6.469000e-15,0.000000e+00,0.000000e+00
1.906000e-01,6.220000e-15,0.000000e+00,0.000000e+00
2.239000e-01,6.067000e-15,0.000000e+00,0.000000e+00
2.630000e-01,5.965000e-15,0.000000e+00,0.000000e+00
3.090000e-01,5.879000e-15,0.000000e+00,0.000000e+00
3.631000e-01,5.789000e-15,0.000000e+00,0.000000e+00
4.266000e-01,5.682000e-15,0.000000e+00,0.000000e+00
5.012000e-01,5.551000e-15,0.000000e+00,0.000000e+00
5.888000e-01,5.394000e-15,0.000000e+00,0.000000e+00
6.918000e-01,5.213000e-15,0.000000e+00,0.000000e+00
8.128000e-01,5.013000e-15,0.000000e+00,0.000000e+00
9.550000e-01,4.800000e-15,0.000000e+00,0.000000e+00
1.122000e+00,4.580000e-15,0.000000e+00,0.000000e+00
1.318000e+00,4.359000e-15,0.000000e+00,0.000000e+00
1.549000e+00,4.143000e-15,0.000000e+00,0.000000e+00
1.820000e+00,3.937000e-15,0.000000e+00,0.000000e+00
2.138000e+00,3.742000e-15,0.000000e+00,0.000000e+00
2.512000e+00,3.562000e-15,0.000000e+00,0.000000e+00
2.951000e+00,3.398000e-15,0.000000e+00,0.000000e+00
3.467000e+00,3.250000e-15,0.000000e+00,0.000000e+00
4.074000e+00,3.118000e-15,0.000000e+00,0.000000e+00
4.786000e+00,3.001000e-15,0.000000e+00,0.000000e+00
5.623000e+00,2.900000e-15,0.000000e+00,0.000000e+00
6.607000e+00,2.812000e-15,0.000000e+00,0.000000e+00
7.763000e+00,2.736000e-15,0.000000e+00,0.000000e+00
9.120000e+00,2.671000e-15,0.000000e+00,0.000000e+00
1.072000e+01,2.616000e-15,0.000000e+00,0.000000e+00
1.259000e+01,2.569000e-15,0.000000e+00,0.000000e+00
1.479000e+01,2.529000e-15,0.000000e+00,0.000000e+00
1.738000e+01,2.495000e-15,0.000000e+00,0.000000e+00
2.042000e+01,2.465000e-15,0.000000e+00,0.000000e+00
2.399000e+01,2.438000e-15,0.000000e+00,0.000000e+00
2.818000e+01,2.413000e-15,0.000000e+00,0.000000e+00
3.311000e+01,2.389000e-15,0.000000e+00,0.000000e+00
3.891000e+01,2.366000e-15,0.000000e+00,0.000000e+00
4.571000e+01,2.343000e-15,0.000000e+00,0.000000e+00
5.370000e+01,2.319000e-15,0.000000e+00,0.000000e+00
6.310000e+01,2.293000e-15,0.000000e+00,0.000000e+00
7.413000e+01,2.266000e-15,0.000000e+00,0.000000e+00
8.710000e+01,2.238000e-15,0.000000e+00,0.000000e+00
1.023000e+02,2.209000e-15,0.000000e+00,0.000000e+00
1.202000e+02,2.179000e-15,0.000000e+00,0.000000e+00
1.413000e+02,2.148000e-15,0.000000e+00,0.000000e+00
1.660000e+02,2.117000e-15,0.000000e+00,0.000000e+00
1.950000e+02,2.087000e-15,0.000000e+00,0.000000e+00
2.291000e+02,2.057000e-15,0.000000e+00,0.000000e+00
2.692000e+02,2.029000e-15,0.000000e+00,0.000000e+00
3.162000e+02,2.003000e-15,0.000000e+00,0.000000e+00
3.715000e+02,1.979000e-15,0.000000e+00,0.000000e+00
4.365000e+02,1.959000e-15,0.000000e+00,0.000000e+00
5.129000e+02,1.942000e-15,0.000000e+00,0.000000e+00
6.026000e+02,1.929000e-15,0.000000e+00,0.000000e+00
7.080000e+02,1.920000e-15,0.000000e+00,0.000000e+00
8.318000e+02,1.915000e-15,0.000000e+00,0.000000e+00
9.772000e+02,1.915000e-15,0.000000e+00,0.000000e+00
1.148000e+03,1.918000e-15,0.000000e+00,0.000000e+00
1.349000e+03,1.926000e-15,0.000000e+00,0.000000e+00
1.585000e+03,1.937000e-15,0.000000e+00,0.000000e+00
1.862000e+03,1.950000e-15,0.000000e+00,0.000000e+00
2.188000e+03,1.966000e-15,0.000000e+00,0.000000e+00
2.570000e+03,1.982000e-15,0.000000e+00,0.000000e+00
3.020000e+03,1.997000e-15,0.000000e+00,0.000000e+00
3.548000e+03,2.011000e-15,0.000000e+00,0.000000e+00
4.169000e+03,2.020000e-15,0.000000e+00,0.000000e+00
4.898000e+03,2.022000e-15,0.000000e+00,0.000000e+00
5.754000e+03,2.016000e-15,0.000000e+00,0.000000e+00
6.761000e+03,1.999000e-15,0.000000e+00,0.000000e+00
7.943000e+03,1.968000e-15,0.000000e+00,0.000000e+00
9.333000e+03,1.922000e-15,0.000000e+00,0.000000e+00
1.097000e+04,1.858000e-15,0.000000e+00,0.000000e+00
1.288000e+04,1.776000e-15,0.000000e+00,0.000000e+00
1.514000e+04,1.675000e-15,0.000000e+00,0.000000e+00
1.778000e+04,1.557000e-15,0.000000e+00,0.000000e+00
2.089000e+04,1.424000e-15,0.000000e+00,0.000000e+00
2.455000e+04,1.278000e-15,0.000000e+00,0.000000e+00
2.884000e+04,1.125000e-15,0.000000e+00,0.000000e+00
3.388000e+04,9.681000e-16,0.000000e+00,0.000000e+00
3.981000e+04,8.137000e-16,0.000000e+00,0.000000e+00
4.677000e+04,6.664000e-16,0.000000e+00,0.000000e+00
5.495000e+04,5.307000e-16,0.000000e+00,0.000000e+00
6.457000e+04,4.100000e-16,0.000000e+00,0.000000e+00
7.586000e+04,3.066000e-16,0.000000e+00,0.000000e+00
8.913000e+04,2.214000e-16,0.000000e+00,0.000000e+00
1.047000e+05,1.538000e-16,0.000000e+00,0.000000e+00
1.230000e+05,1.025000e-16,0.000000e+00,0.000000e+00
1.445000e+05,6.534000e-17,0.000000e+00,0.000000e+00
1.698000e+05,3.963000e-17,0.000000e+00,0.000000e+00
1.995000e+05,2.276000e-17,0.000000e+00,0.000000e+00
2.344000e+05,1.230000e-17,0.000000e+00,0.000000e+00
2.754000e+05,6.219000e-18,0.000000e+00,0.000000e+00
3.236000e+05,2.915000e-18,0.000000e+00,0.000000e+00
3.802000e+05,1.255000e-18,0.000000e+00,0.000000e+00
4.467000e+05,4.903000e-19,0.000000e+00,0.000000e+00
5.248000e+05,1.717000e-19,0.000000e+00,0.000000e+00
6.166000e+05,5.299000e-20,0.000000e+00,0.000000e+00
7.244000e+05,1.415000e-20,0.000000e+00,0.000000e+00
8.511000e+05,3.200000e-21,0.000000e+00,0.000000e+00
1.000000e+06,5.971000e-22,0.000000e+00,0.000000e+00
