Cr6+ + H(1s) --> Cr6+ + H+
X = Energy (eV),Y = Cross section (cm2)
2.600000e+06,1.860000e-16
4.160000e+06,7.850000e-16
5.200000e+06,1.213000e-15
7.800000e+06,1.524000e-15
1.040000e+07,1.400000e-15
1.560000e+07,1.101000e-15
2.080000e+07,8.400000e-16
2.600000e+07,6.600000e-16
3.120000e+07,5.650000e-16
3.640000e+07,4.600000e-16
4.160000e+07,3.720000e-16
4.680000e+07,3.170000e-16
5.200000e+07,2.960000e-16
