C3H + H+ --> (total)
X = Electron energy (eV),Y = Cross section (cm2),Y Error Plus (cm2),Y Error Minus (cm2)
1.000000e-01,3.051000e-15,0.000000e+00,0.000000e+00
1.155000e-01,2.754000e-15,0.000000e+00,0.000000e+00
1.334000e-01,2.488000e-15,0.000000e+00,0.000000e+00
1.540000e-01,2.247000e-15,0.000000e+00,0.000000e+00
1.778000e-01,2.028000e-15,0.000000e+00,0.000000e+00
2.054000e-01,1.828000e-15,0.000000e+00,0.000000e+00
2.371000e-01,1.646000e-15,0.000000e+00,0.000000e+00
2.738000e-01,1.479000e-15,0.000000e+00,0.000000e+00
3.162000e-01,1.328000e-15,0.000000e+00,0.000000e+00
3.652000e-01,1.190000e-15,0.000000e+00,0.000000e+00
4.217000e-01,1.065000e-15,0.000000e+00,0.000000e+00
4.870000e-01,9.522000e-16,0.000000e+00,0.000000e+00
5.623000e-01,8.504000e-16,0.000000e+00,0.000000e+00
6.494000e-01,7.591000e-16,0.000000e+00,0.000000e+00
7.499000e-01,6.773000e-16,0.000000e+00,0.000000e+00
8.660000e-01,6.045000e-16,0.000000e+00,0.000000e+00
1.000000e+00,5.398000e-16,0.000000e+00,0.000000e+00
1.155000e+00,4.824000e-16,0.000000e+00,0.000000e+00
1.334000e+00,4.318000e-16,0.000000e+00,0.000000e+00
1.540000e+00,3.872000e-16,0.000000e+00,0.000000e+00
1.778000e+00,3.480000e-16,0.000000e+00,0.000000e+00
2.054000e+00,3.136000e-16,0.000000e+00,0.000000e+00
2.371000e+00,2.835000e-16,0.000000e+00,0.000000e+00
2.738000e+00,2.572000e-16,0.000000e+00,0.000000e+00
3.162000e+00,2.343000e-16,0.000000e+00,0.000000e+00
3.652000e+00,2.144000e-16,0.000000e+00,0.000000e+00
4.217000e+00,1.971000e-16,0.000000e+00,0.000000e+00
4.870000e+00,1.821000e-16,0.000000e+00,0.000000e+00
5.623000e+00,1.692000e-16,0.000000e+00,0.000000e+00
6.494000e+00,1.581000e-16,0.000000e+00,0.000000e+00
7.499000e+00,1.486000e-16,0.000000e+00,0.000000e+00
8.660000e+00,1.405000e-16,0.000000e+00,0.000000e+00
1.000000e+01,1.337000e-16,0.000000e+00,0.000000e+00
1.155000e+01,1.281000e-16,0.000000e+00,0.000000e+00
1.334000e+01,1.235000e-16,0.000000e+00,0.000000e+00
1.540000e+01,1.199000e-16,0.000000e+00,0.000000e+00
1.778000e+01,1.172000e-16,0.000000e+00,0.000000e+00
2.054000e+01,1.153000e-16,0.000000e+00,0.000000e+00
2.371000e+01,1.142000e-16,0.000000e+00,0.000000e+00
2.738000e+01,1.140000e-16,0.000000e+00,0.000000e+00
3.162000e+01,1.144000e-16,0.000000e+00,0.000000e+00
3.652000e+01,1.157000e-16,0.000000e+00,0.000000e+00
4.217000e+01,1.177000e-16,0.000000e+00,0.000000e+00
4.870000e+01,1.205000e-16,0.000000e+00,0.000000e+00
5.623000e+01,1.242000e-16,0.000000e+00,0.000000e+00
6.494000e+01,1.287000e-16,0.000000e+00,0.000000e+00
7.499000e+01,1.341000e-16,0.000000e+00,0.000000e+00
8.660000e+01,1.406000e-16,0.000000e+00,0.000000e+00
1.000000e+02,1.481000e-16,0.000000e+00,0.000000e+00
1.155000e+02,1.567000e-16,0.000000e+00,0.000000e+00
1.334000e+02,1.666000e-16,0.000000e+00,0.000000e+00
1.540000e+02,1.779000e-16,0.000000e+00,0.000000e+00
1.778000e+02,1.907000e-16,0.000000e+00,0.000000e+00
2.054000e+02,2.051000e-16,0.000000e+00,0.000000e+00
2.371000e+02,2.212000e-16,0.000000e+00,0.000000e+00
2.738000e+02,2.392000e-16,0.000000e+00,0.000000e+00
3.162000e+02,2.592000e-16,0.000000e+00,0.000000e+00
3.652000e+02,2.814000e-16,0.000000e+00,0.000000e+00
4.217000e+02,3.059000e-16,0.000000e+00,0.000000e+00
4.870000e+02,3.327000e-16,0.000000e+00,0.000000e+00
5.623000e+02,3.619000e-16,0.000000e+00,0.000000e+00
6.494000e+02,3.935000e-16,0.000000e+00,0.000000e+00
7.499000e+02,4.276000e-16,0.000000e+00,0.000000e+00
8.660000e+02,4.640000e-16,0.000000e+00,0.000000e+00
1.000000e+03,5.026000e-16,0.000000e+00,0.000000e+00
1.155000e+03,5.429000e-16,0.000000e+00,0.000000e+00
1.334000e+03,5.847000e-16,0.000000e+00,0.000000e+00
1.540000e+03,6.274000e-16,0.000000e+00,0.000000e+00
1.778000e+03,6.703000e-16,0.000000e+00,0.000000e+00
2.054000e+03,7.126000e-16,0.000000e+00,0.000000e+00
2.371000e+03,7.533000e-16,0.000000e+00,0.000000e+00
2.738000e+03,7.913000e-16,0.000000e+00,0.000000e+00
3.162000e+03,8.255000e-16,0.000000e+00,0.000000e+00
3.652000e+03,8.546000e-16,0.000000e+00,0.000000e+00
4.217000e+03,8.772000e-16,0.000000e+00,0.000000e+00
4.870000e+03,8.922000e-16,0.000000e+00,0.000000e+00
5.623000e+03,8.984000e-16,0.000000e+00,0.000000e+00
6.494000e+03,8.948000e-16,0.000000e+00,0.000000e+00
7.499000e+03,8.810000e-16,0.000000e+00,0.000000e+00
8.660000e+03,8.564000e-16,0.000000e+00,0.000000e+00
1.000000e+04,8.214000e-16,0.000000e+00,0.000000e+00
1.155000e+04,7.764000e-16,0.000000e+00,0.000000e+00
1.334000e+04,7.225000e-16,0.000000e+00,0.000000e+00
1.540000e+04,6.614000e-16,0.000000e+00,0.000000e+00
1.778000e+04,5.947000e-16,0.000000e+00,0.000000e+00
2.054000e+04,5.248000e-16,0.000000e+00,0.000000e+00
2.371000e+04,4.538000e-16,0.000000e+00,0.000000e+00
2.738000e+04,3.842000e-16,0.000000e+00,0.000000e+00
3.162000e+04,3.179000e-16,0.000000e+00,0.000000e+00
3.652000e+04,2.567000e-16,0.000000e+00,0.000000e+00
4.217000e+04,2.020000e-16,0.000000e+00,0.000000e+00
4.870000e+04,1.547000e-16,0.000000e+00,0.000000e+00
5.623000e+04,1.151000e-16,0.000000e+00,0.000000e+00
6.494000e+04,8.305000e-17,0.000000e+00,0.000000e+00
7.499000e+04,5.799000e-17,0.000000e+00,0.000000e+00
8.660000e+04,3.912000e-17,0.000000e+00,0.000000e+00
1.000000e+05,2.544000e-17,0.000000e+00,0.000000e+00
1.155000e+05,1.592000e-17,0.000000e+00,0.000000e+00
1.334000e+05,9.560000e-18,0.000000e+00,0.000000e+00
1.540000e+05,5.497000e-18,0.000000e+00,0.000000e+00
1.778000e+05,3.019000e-18,0.000000e+00,0.000000e+00
2.054000e+05,1.580000e-18,0.000000e+00,0.000000e+00
2.371000e+05,7.852000e-19,0.000000e+00,0.000000e+00
2.738000e+05,3.697000e-19,0.000000e+00,0.000000e+00
3.162000e+05,1.644000e-19,0.000000e+00,0.000000e+00
3.652000e+05,6.879000e-20,0.000000e+00,0.000000e+00
4.217000e+05,2.701000e-20,0.000000e+00,0.000000e+00
4.870000e+05,9.915000e-21,0.000000e+00,0.000000e+00
5.623000e+05,3.391000e-21,0.000000e+00,0.000000e+00
6.494000e+05,1.076000e-21,0.000000e+00,0.000000e+00
7.499000e+05,3.154000e-22,0.000000e+00,0.000000e+00
8.660000e+05,8.513000e-23,0.000000e+00,0.000000e+00
1.000000e+06,2.105000e-23,0.000000e+00,0.000000e+00
