Fe9+ + H(1s) --> Fe9+ + H+
X = Energy (eV),Y = Cross section (cm2)
2.800000e+06,1.430000e-16
4.480000e+06,8.080000e-16
5.600000e+06,1.476000e-15
8.400000e+06,2.510000e-15
1.120000e+07,2.595000e-15
1.680000e+07,2.289000e-15
2.240000e+07,1.974000e-15
2.800000e+07,1.661000e-15
3.360000e+07,1.500000e-15
3.920000e+07,1.310000e-15
4.480000e+07,1.188000e-15
5.040000e+07,1.035000e-15
5.600000e+07,9.193000e-16
